10000.000000 0.000000
20000.000000 157.898917
30000.000000 174.836358
40000.000000 201.717098
50000.000000 183.781826
60000.000000 184.547182
70000.000000 184.812399
80000.000000 141.581272
90000.000000 183.717625
100000.000000 203.488921
110000.000000 162.202757
120000.000000 162.498658
130000.000000 163.400782
140000.000000 143.371592
150000.000000 143.266276
160000.000000 141.678938
170000.000000 162.115898
180000.000000 161.918746
190000.000000 183.970137
200000.000000 161.269233
210000.000000 121.570572
220000.000000 163.057781
230000.000000 163.824611
240000.000000 141.560345
250000.000000 123.043446
260000.000000 142.582512
270000.000000 141.838390
280000.000000 162.161708
290000.000000 203.873119
300000.000000 182.733860
310000.000000 142.443820
320000.000000 200.267931
330000.000000 140.190960
340000.000000 163.378042
350000.000000 178.243208
360000.000000 193.798485
370000.000000 195.369542
380000.000000 177.293974
390000.000000 178.674363
400000.000000 222.977367
410000.000000 160.775460
420000.000000 158.687635
430000.000000 164.822602
440000.000000 200.334990
450000.000000 199.203994
460000.000000 228.349097
470000.000000 238.434240
480000.000000 195.057193
490000.000000 197.672446
500000.000000 180.945202
510000.000000 181.460080
520000.000000 218.897973
530000.000000 199.519085
540000.000000 182.614216
550000.000000 180.256257
560000.000000 162.835425
570000.000000 200.311849
580000.000000 197.011049
590000.000000 176.543597
600000.000000 176.592841
610000.000000 164.405433
620000.000000 143.347920
630000.000000 125.107470
640000.000000 143.182054
650000.000000 220.832337
660000.000000 217.171048
670000.000000 194.759989
680000.000000 200.740717
690000.000000 160.016039
700000.000000 194.171190
710000.000000 178.121248
720000.000000 177.795342
730000.000000 177.973343
740000.000000 194.480636
750000.000000 195.235057
760000.000000 196.137652
770000.000000 178.996402
780000.000000 218.882218
790000.000000 214.749109
800000.000000 234.859111
810000.000000 272.947608
820000.000000 201.375560
830000.000000 200.413668
840000.000000 181.768583
850000.000000 221.432221
860000.000000 182.563951
870000.000000 160.587810
880000.000000 242.963041
890000.000000 220.676469
900000.000000 203.637178
910000.000000 185.846761
920000.000000 182.057603
930000.000000 203.319029
940000.000000 181.971978
950000.000000 199.628274
960000.000000 221.340321
970000.000000 146.312389
980000.000000 182.798798
990000.000000 203.430926
1000000.000000 241.034680
1010000.000000 204.596858
1020000.000000 222.721116
1030000.000000 224.370924
1040000.000000 183.351368
1050000.000000 219.306347
1060000.000000 240.264992
1070000.000000 221.704368
1080000.000000 222.707688
1090000.000000 240.855318
1100000.000000 240.122469
1110000.000000 241.211036
1120000.000000 221.822847
1130000.000000 239.406555
1140000.000000 261.646460
1150000.000000 258.601795
1160000.000000 222.603522
1170000.000000 220.179570
1180000.000000 222.901233
1190000.000000 223.258788
1200000.000000 237.381737
1210000.000000 274.581051
1220000.000000 255.279303
1230000.000000 277.970290
1240000.000000 259.545847
1250000.000000 277.065060
1260000.000000 293.793241
1270000.000000 234.982867
1280000.000000 197.712749
1290000.000000 216.643628
1300000.000000 257.978083
1310000.000000 222.595928
1320000.000000 276.792297
1330000.000000 203.861899
1340000.000000 239.907290
1350000.000000 214.931624
1360000.000000 239.659414
1370000.000000 234.273392
1380000.000000 218.820097
1390000.000000 222.860415
1400000.000000 259.976809
1410000.000000 202.924954
1420000.000000 224.204457
1430000.000000 197.989968
1440000.000000 253.856718
1450000.000000 252.609341
1460000.000000 236.281724
1470000.000000 258.194840
1480000.000000 198.125646
1490000.000000 234.322580
1500000.000000 214.883910
1510000.000000 218.557717
1520000.000000 219.278364
1530000.000000 238.345475
1540000.000000 234.573350
1550000.000000 215.423693
1560000.000000 234.149738
1570000.000000 199.206640
1580000.000000 252.858329
1590000.000000 215.469489
1600000.000000 222.200973
1610000.000000 216.462413
1620000.000000 234.843942
1630000.000000 252.667532
1640000.000000 215.045675
1650000.000000 234.340648
1660000.000000 252.180010
1670000.000000 213.565644
1680000.000000 269.406316
1690000.000000 229.808500
1700000.000000 179.769974
1710000.000000 214.149798
1720000.000000 180.263526
1730000.000000 214.875662
1740000.000000 231.981155
1750000.000000 254.827527
1760000.000000 233.933512
1770000.000000 220.788254
1780000.000000 238.275500
1790000.000000 234.999216
1800000.000000 254.869599
1810000.000000 271.658886
1820000.000000 237.473902
1830000.000000 235.928424
1840000.000000 218.523339
1850000.000000 292.653429
1860000.000000 216.350389
1870000.000000 218.021441
1880000.000000 200.602177
1890000.000000 202.191488
1900000.000000 203.153616
1910000.000000 196.280559
1920000.000000 181.688029
1930000.000000 196.490834
1940000.000000 180.793516
1950000.000000 215.060507
1960000.000000 197.450374
1970000.000000 266.889434
1980000.000000 214.672155
1990000.000000 212.907933
2000000.000000 196.229681
2010000.000000 194.889025
2020000.000000 220.059463
2030000.000000 198.512523
2040000.000000 216.227666
2050000.000000 215.936577
2060000.000000 231.760254
2070000.000000 222.325044
2080000.000000 238.420590
2090000.000000 220.552800
2100000.000000 258.178340
2110000.000000 229.954322
2120000.000000 216.821904
2130000.000000 219.468054
2140000.000000 256.239128
2150000.000000 292.904154
2160000.000000 250.587678
2170000.000000 234.070239
2180000.000000 272.930436
2190000.000000 223.082048
2200000.000000 235.788756
2210000.000000 239.454359
2220000.000000 203.175191
2230000.000000 165.514868
2240000.000000 182.825499
2250000.000000 201.494082
2260000.000000 199.088150
2270000.000000 217.590532
2280000.000000 218.315289
2290000.000000 255.628590
2300000.000000 239.287521
2310000.000000 239.568450
2320000.000000 240.386593
2330000.000000 218.694454
2340000.000000 219.670296
2350000.000000 216.726215
2360000.000000 215.782464
2370000.000000 197.434450
2380000.000000 219.234963
2390000.000000 162.376211
2400000.000000 194.882582
2410000.000000 197.739229
2420000.000000 184.152205
2430000.000000 198.279114
2440000.000000 178.367354
2450000.000000 160.280828
2460000.000000 163.005298
2470000.000000 160.216464
2480000.000000 122.356437
2490000.000000 201.941741
2500000.000000 198.647653
2510000.000000 159.584001
2520000.000000 161.860342
2530000.000000 197.535876
2540000.000000 160.006388
2550000.000000 183.200052
2560000.000000 199.247159
2570000.000000 196.868546
2580000.000000 199.957171
2590000.000000 184.037469
2600000.000000 160.414925
2610000.000000 220.924210
2620000.000000 219.438919
2630000.000000 236.823175
2640000.000000 199.438659
2650000.000000 197.428542
2660000.000000 177.649195
2670000.000000 199.041333
2680000.000000 238.827581
2690000.000000 236.322428
2700000.000000 176.404121
2710000.000000 160.148809
2720000.000000 221.386080
2730000.000000 235.757255
2740000.000000 199.727368
2750000.000000 199.671884
2760000.000000 180.210687
2770000.000000 180.184703
2780000.000000 184.806212
2790000.000000 160.613810
2800000.000000 197.765334
2810000.000000 198.505568
2820000.000000 193.841824
2830000.000000 178.956002
2840000.000000 196.694839
2850000.000000 235.368546
2860000.000000 197.606104
2870000.000000 178.464353
2880000.000000 194.711250
2890000.000000 196.822599
2900000.000000 238.714457
2910000.000000 220.491461
2920000.000000 176.467361
2930000.000000 196.658343
2940000.000000 178.685838
2950000.000000 160.455069
2960000.000000 181.059338
2970000.000000 176.803049
2980000.000000 139.904284
2990000.000000 197.163955
3000000.000000 195.465403
3010000.000000 159.182333
3020000.000000 180.682833
3030000.000000 200.416908
3040000.000000 161.915158
3050000.000000 162.382824
3060000.000000 215.640497
3070000.000000 200.775805
3080000.000000 160.927799
3090000.000000 200.631310
3100000.000000 196.264413
3110000.000000 159.586420
3120000.000000 178.823328
3130000.000000 161.888078
3140000.000000 159.520999
3150000.000000 141.479860
3160000.000000 159.855627
3170000.000000 142.267634
3180000.000000 141.499204
3190000.000000 161.364498
3200000.000000 160.099419
3210000.000000 180.067620
3220000.000000 197.535077
3230000.000000 202.814469
3240000.000000 199.036623
3250000.000000 205.235909
3260000.000000 197.680437
3270000.000000 220.923242
3280000.000000 197.754007
3290000.000000 214.284028
3300000.000000 239.407867
3310000.000000 196.368007
3320000.000000 198.934019
3330000.000000 201.918637
3340000.000000 163.016743
3350000.000000 162.320778
3360000.000000 199.678729
3370000.000000 181.105534
3380000.000000 197.204084
3390000.000000 160.699681
3400000.000000 160.615185
3410000.000000 142.895523
3420000.000000 146.072249
3430000.000000 143.492704
3440000.000000 142.934992
3450000.000000 165.027723
3460000.000000 162.506442
3470000.000000 144.772963
3480000.000000 164.312005
3490000.000000 142.271292
3500000.000000 163.743226
3510000.000000 199.014933
3520000.000000 140.457741
3530000.000000 199.226065
3540000.000000 157.804008
3550000.000000 159.181519
3560000.000000 160.719333
3570000.000000 222.598483
3580000.000000 204.088063
3590000.000000 160.142847
3600000.000000 178.042006
3610000.000000 178.589610
3620000.000000 179.583651
3630000.000000 175.627400
3640000.000000 142.208195
3650000.000000 161.470340
3660000.000000 219.284041
3670000.000000 177.997748
3680000.000000 177.716717
3690000.000000 218.341593
3700000.000000 216.097145
3710000.000000 236.897175
3720000.000000 211.651243
3730000.000000 250.144568
3740000.000000 216.797680
3750000.000000 212.480454
3760000.000000 197.294034
3770000.000000 178.316149
3780000.000000 218.410300
3790000.000000 197.346634
3800000.000000 179.554567
3810000.000000 198.617626
3820000.000000 198.310202
3830000.000000 197.347047
3840000.000000 215.296541
3850000.000000 215.988449
3860000.000000 217.232447
3870000.000000 198.411064
3880000.000000 180.502027
3890000.000000 158.236030
3900000.000000 180.376111
3910000.000000 175.933900
3920000.000000 158.956233
3930000.000000 178.898852
3940000.000000 195.553706
3950000.000000 231.984234
3960000.000000 178.927040
3970000.000000 197.202389
3980000.000000 177.950286
3990000.000000 195.977650
4000000.000000 198.769152
4010000.000000 212.700040
4020000.000000 231.864269
4030000.000000 179.245834
4040000.000000 217.667135
4050000.000000 216.966228
4060000.000000 199.901930
4070000.000000 180.782396
4080000.000000 160.626796
4090000.000000 202.096091
4100000.000000 180.977096
4110000.000000 221.531636
4120000.000000 180.238832
4130000.000000 158.180392
4140000.000000 200.373773
4150000.000000 158.065681
4160000.000000 199.423001
4170000.000000 159.568051
4180000.000000 180.574578
4190000.000000 180.281439
4200000.000000 253.513613
4210000.000000 218.046342
4220000.000000 177.589473
4230000.000000 217.173075
4240000.000000 195.011290
4250000.000000 176.856312
4260000.000000 199.085173
4270000.000000 177.575729
4280000.000000 159.446373
4290000.000000 159.080139
4300000.000000 197.434426
4310000.000000 200.127495
4320000.000000 202.736038
4330000.000000 163.612276
4340000.000000 160.448612
4350000.000000 182.439862
4360000.000000 196.499709
4370000.000000 234.300412
4380000.000000 237.662392
4390000.000000 200.113203
4400000.000000 195.837622
4410000.000000 195.969092
4420000.000000 196.713726
4430000.000000 255.134053
4440000.000000 199.457346
4450000.000000 198.815910
4460000.000000 256.596792
4470000.000000 240.899174
4480000.000000 197.172883
4490000.000000 197.531772
4500000.000000 274.943539
4510000.000000 194.895917
4520000.000000 177.629143
4530000.000000 163.688127
4540000.000000 199.719352
4550000.000000 218.471343
4560000.000000 180.212136
4570000.000000 221.266053
4580000.000000 235.230078
4590000.000000 234.327029
4600000.000000 220.084315
4610000.000000 237.285880
4620000.000000 160.867497
4630000.000000 220.026045
4640000.000000 202.567163
4650000.000000 201.476250
4660000.000000 182.290610
4670000.000000 239.997859
4680000.000000 219.555078
4690000.000000 201.632432
4700000.000000 181.893215
4710000.000000 183.347171
4720000.000000 202.481662
4730000.000000 201.661602
4740000.000000 162.228898
4750000.000000 182.421054
4760000.000000 220.844442
4770000.000000 199.096943
4780000.000000 219.089866
4790000.000000 177.945354
4800000.000000 219.028008
4810000.000000 199.129870
4820000.000000 181.242922
4830000.000000 181.959007
4840000.000000 199.506642
4850000.000000 197.080959
4860000.000000 196.359932
4870000.000000 182.283161
4880000.000000 180.306000
4890000.000000 161.363946
4900000.000000 217.341545
4910000.000000 196.392680
4920000.000000 196.976657
4930000.000000 197.345830
4940000.000000 196.115972
4950000.000000 180.947608
4960000.000000 198.068852
4970000.000000 219.756335
4980000.000000 218.951496
4990000.000000 160.379649
5000000.000000 179.090355
5010000.000000 183.950462
5020000.000000 140.688042
5030000.000000 163.032834
5040000.000000 163.253973
5050000.000000 181.042541
5060000.000000 181.944358
5070000.000000 202.253157
5080000.000000 162.371592
5090000.000000 161.464674
5100000.000000 183.416444
5110000.000000 143.315828
5120000.000000 143.576706
5130000.000000 182.270054
5140000.000000 202.962015
5150000.000000 185.078020
5160000.000000 221.873116
5170000.000000 164.953627
5180000.000000 143.460670
5190000.000000 186.914792
5200000.000000 144.277207
5210000.000000 164.526740
5220000.000000 185.379621
5230000.000000 184.732588
5240000.000000 183.955114
5250000.000000 201.112900
5260000.000000 219.758110
5270000.000000 200.095141
5280000.000000 181.492114
5290000.000000 163.359535
5300000.000000 201.142877
5310000.000000 218.275283
5320000.000000 201.351705
5330000.000000 218.910626
5340000.000000 219.664560
5350000.000000 256.098760
5360000.000000 239.323824
5370000.000000 238.601974
5380000.000000 200.940510
5390000.000000 238.038601
5400000.000000 220.666788
5410000.000000 199.447081
5420000.000000 197.283840
5430000.000000 215.896672
5440000.000000 237.216016
5450000.000000 255.165610
5460000.000000 235.636360
5470000.000000 179.899480
5480000.000000 163.256589
5490000.000000 161.644943
5500000.000000 219.671962
5510000.000000 202.528510
5520000.000000 217.789792
5530000.000000 140.063811
5540000.000000 219.407925
5550000.000000 240.172612
5560000.000000 258.457310
5570000.000000 258.411502
5580000.000000 238.605563
5590000.000000 239.988249
5600000.000000 256.212607
5610000.000000 217.269291
5620000.000000 254.766596
5630000.000000 197.355039
5640000.000000 239.810165
5650000.000000 255.792344
5660000.000000 256.367568
5670000.000000 293.846857
5680000.000000 215.032176
5690000.000000 255.128115
5700000.000000 256.696063
5710000.000000 237.973781
5720000.000000 259.038416
5730000.000000 163.280011
5740000.000000 277.165201
5750000.000000 256.524001
5760000.000000 217.014106
5770000.000000 220.796044
5780000.000000 238.241135
5790000.000000 238.235214
5800000.000000 277.343221
5810000.000000 217.179692
5820000.000000 278.982741
5830000.000000 220.421728
5840000.000000 221.025043
5850000.000000 222.001641
5860000.000000 243.232987
5870000.000000 200.741236
5880000.000000 277.222344
5890000.000000 295.345123
5900000.000000 255.140677
5910000.000000 256.692294
5920000.000000 221.623850
5930000.000000 259.362338
5940000.000000 222.273972
5950000.000000 203.341333
5960000.000000 237.880031
5970000.000000 276.901959
5980000.000000 235.825699
5990000.000000 233.365308
6000000.000000 215.523326
6010000.000000 199.211114
6020000.000000 182.749848
6030000.000000 177.304396
6040000.000000 214.504300
6050000.000000 250.002203
6060000.000000 233.311398
6070000.000000 256.382249
6080000.000000 198.822050
6090000.000000 217.669129
6100000.000000 219.827879
6110000.000000 238.322222
6120000.000000 221.551368
6130000.000000 182.731405
6140000.000000 179.285297
6150000.000000 161.166742
6160000.000000 202.031366
6170000.000000 201.009321
6180000.000000 159.998952
6190000.000000 200.027506
6200000.000000 180.610614
6210000.000000 197.026807
6220000.000000 235.860426
6230000.000000 179.711888
6240000.000000 161.033051
6250000.000000 178.291483
6260000.000000 159.456314
6270000.000000 159.433349
6280000.000000 179.056317
6290000.000000 159.116714
6300000.000000 214.853004
6310000.000000 254.892011
6320000.000000 214.055767
6330000.000000 213.090374
6340000.000000 159.680882
6350000.000000 160.679105
6360000.000000 158.214047
6370000.000000 158.575017
6380000.000000 160.851874
6390000.000000 159.287953
6400000.000000 179.017432
6410000.000000 199.726765
6420000.000000 214.171489
6430000.000000 253.100205
6440000.000000 232.797191
6450000.000000 236.922252
6460000.000000 193.777905
6470000.000000 253.752274
6480000.000000 198.026226
6490000.000000 273.437119
6500000.000000 196.926085
6510000.000000 215.989652
6520000.000000 256.238691
6530000.000000 218.366570
6540000.000000 194.283707
6550000.000000 251.826243
6560000.000000 252.596162
6570000.000000 230.643528
6580000.000000 233.214392
6590000.000000 233.788008
6600000.000000 235.929879
6610000.000000 250.348757
6620000.000000 236.299735
6630000.000000 215.854403
6640000.000000 216.324552
6650000.000000 212.232654
6660000.000000 233.636025
6670000.000000 235.033323
6680000.000000 234.940220
6690000.000000 254.562457
6700000.000000 254.135517
6710000.000000 236.784687
6720000.000000 219.878073
6730000.000000 253.871224
6740000.000000 237.888254
6750000.000000 235.573284
6760000.000000 213.752288
6770000.000000 254.030141
6780000.000000 234.703684
6790000.000000 250.528428
6800000.000000 232.645645
6810000.000000 232.799263
6820000.000000 211.679948
6830000.000000 211.885834
6840000.000000 231.338904
6850000.000000 233.012639
6860000.000000 275.898781
6870000.000000 234.437056
6880000.000000 273.632508
6890000.000000 276.103165
6900000.000000 236.793986
6910000.000000 254.677206
6920000.000000 256.305320
6930000.000000 256.132963
6940000.000000 275.218466
6950000.000000 252.753174
6960000.000000 215.930701
6970000.000000 235.917775
6980000.000000 254.572462
6990000.000000 213.954252
7000000.000000 214.195260
7010000.000000 214.498380
7020000.000000 214.549810
7030000.000000 216.393592
7040000.000000 236.999111
7050000.000000 279.062284
7060000.000000 215.678456
7070000.000000 217.491616
7080000.000000 197.787097
7090000.000000 237.746297
7100000.000000 238.068930
7110000.000000 255.442490
7120000.000000 196.854229
7130000.000000 277.068025
7140000.000000 222.301834
7150000.000000 261.184736
7160000.000000 201.355343
7170000.000000 180.242759
7180000.000000 180.505225
7190000.000000 215.791501
7200000.000000 218.497586
7210000.000000 162.865250
7220000.000000 235.016273
7230000.000000 214.837986
7240000.000000 276.278823
7250000.000000 220.527867
7260000.000000 297.353858
7270000.000000 201.078888
7280000.000000 239.385633
7290000.000000 234.412314
7300000.000000 198.233956
7310000.000000 234.294074
7320000.000000 235.294851
7330000.000000 235.146207
7340000.000000 292.246651
7350000.000000 232.208152
7360000.000000 257.143136
7370000.000000 200.140949
7380000.000000 272.845051
7390000.000000 259.658513
7400000.000000 214.927337
7410000.000000 212.681121
7420000.000000 251.312392
7430000.000000 230.979825
7440000.000000 232.967466
7450000.000000 198.932841
7460000.000000 236.288578
7470000.000000 233.890930
7480000.000000 216.170402
7490000.000000 233.819296
7500000.000000 251.088236
7510000.000000 231.127386
7520000.000000 253.009191
7530000.000000 249.700486
7540000.000000 270.354300
7550000.000000 273.327650
7560000.000000 233.818501
7570000.000000 253.643672
7580000.000000 232.720560
7590000.000000 273.861841
7600000.000000 269.349576
7610000.000000 249.844674
7620000.000000 292.207246
7630000.000000 251.871989
7640000.000000 233.487455
7650000.000000 257.120142
7660000.000000 233.450929
7670000.000000 254.610648
7680000.000000 253.798576
7690000.000000 273.335700
7700000.000000 273.402822
7710000.000000 292.641996
7720000.000000 250.658733
7730000.000000 272.066039
7740000.000000 275.750146
7750000.000000 215.061360
7760000.000000 215.349579
7770000.000000 292.605295
7780000.000000 296.851289
7790000.000000 293.133962
7800000.000000 315.991641
7810000.000000 252.248666
7820000.000000 313.649673
7830000.000000 277.194110
7840000.000000 271.714622
7850000.000000 256.266342
7860000.000000 276.525236
7870000.000000 236.445328
7880000.000000 234.191337
7890000.000000 217.983784
7900000.000000 201.828858
7910000.000000 200.799487
7920000.000000 219.579935
7930000.000000 260.787220
7940000.000000 297.379888
7950000.000000 255.856357
7960000.000000 293.734634
7970000.000000 274.107957
7980000.000000 217.846946
7990000.000000 241.067878
8000000.000000 277.794221
8010000.000000 314.935165
8020000.000000 277.989590
8030000.000000 236.959213
8040000.000000 299.247437
8050000.000000 260.994096
8060000.000000 239.499414
8070000.000000 279.545514
8080000.000000 281.588138
8090000.000000 280.392301
8100000.000000 280.632303
8110000.000000 297.868098
8120000.000000 259.067927
8130000.000000 280.458361
8140000.000000 279.181443
8150000.000000 298.497697
8160000.000000 260.577038
8170000.000000 260.483931
8180000.000000 277.252521
8190000.000000 314.334966
8200000.000000 275.854277
8210000.000000 276.990292
8220000.000000 315.084213
8230000.000000 315.763769
8240000.000000 334.016884
8250000.000000 277.142640
8260000.000000 296.877168
8270000.000000 255.914188
8280000.000000 276.297010
8290000.000000 276.926300
8300000.000000 251.862819
8310000.000000 253.849406
8320000.000000 255.087818
8330000.000000 222.588322
8340000.000000 253.753221
8350000.000000 257.088043
8360000.000000 278.121788
8370000.000000 296.796503
8380000.000000 257.777227
8390000.000000 254.534255
8400000.000000 294.948994
8410000.000000 317.348568
8420000.000000 277.217202
8430000.000000 296.344945
8440000.000000 314.429453
8450000.000000 316.754366
8460000.000000 278.992628
8470000.000000 316.655402
8480000.000000 336.158434
8490000.000000 297.703771
8500000.000000 278.750459
8510000.000000 277.645862
8520000.000000 256.939543
8530000.000000 327.439051
8540000.000000 234.432961
8550000.000000 331.591102
8560000.000000 249.535914
8570000.000000 287.756862
8580000.000000 296.613214
8590000.000000 276.285147
8600000.000000 277.335227
8610000.000000 316.880627
8620000.000000 237.737402
8630000.000000 251.648409
8640000.000000 236.205796
8650000.000000 272.425867
8660000.000000 251.502370
8670000.000000 254.004034
8680000.000000 235.505814
8690000.000000 214.014772
8700000.000000 235.528929
8710000.000000 234.738520
8720000.000000 235.232694
8730000.000000 255.244069
8740000.000000 234.464590
8750000.000000 250.247961
8760000.000000 235.167837
8770000.000000 229.881885
8780000.000000 236.091195
8790000.000000 213.251600
8800000.000000 230.398521
8810000.000000 234.778721
8820000.000000 232.854677
8830000.000000 235.722823
8840000.000000 215.320646
8850000.000000 179.843218
8860000.000000 291.548695
8870000.000000 217.525105
8880000.000000 275.413871
8890000.000000 274.352843
8900000.000000 254.435373
8910000.000000 276.715731
8920000.000000 233.378707
8930000.000000 254.446547
8940000.000000 255.587526
8950000.000000 277.174204
8960000.000000 278.280686
8970000.000000 276.895005
8980000.000000 234.319505
8990000.000000 237.556113
9000000.000000 217.674743
9010000.000000 217.970447
9020000.000000 257.233778
9030000.000000 257.182414
9040000.000000 238.762461
9050000.000000 215.972506
9060000.000000 218.199004
9070000.000000 239.420971
9080000.000000 239.047898
9090000.000000 277.948311
9100000.000000 222.707967
9110000.000000 181.150118
9120000.000000 185.991248
9130000.000000 184.703201
9140000.000000 243.413078
9150000.000000 205.332775
9160000.000000 165.596524
9170000.000000 203.463303
9180000.000000 262.423731
9190000.000000 183.057590
9200000.000000 281.268700
9210000.000000 223.549405
9220000.000000 245.076445
9230000.000000 221.124448
9240000.000000 258.884529
9250000.000000 258.846651
9260000.000000 223.619363
9270000.000000 225.149608
9280000.000000 225.292709
9290000.000000 240.144449
9300000.000000 201.440177
9310000.000000 259.789135
9320000.000000 239.897585
9330000.000000 221.215444
9340000.000000 221.761937
9350000.000000 257.437769
9360000.000000 237.092227
9370000.000000 296.338525
9380000.000000 275.435410
9390000.000000 215.144323
9400000.000000 216.316544
9410000.000000 275.217665
9420000.000000 276.072583
9430000.000000 274.558217
9440000.000000 255.901933
9450000.000000 272.310581
9460000.000000 274.198732
9470000.000000 255.674442
9480000.000000 233.531518
9490000.000000 233.806267
9500000.000000 252.758410
9510000.000000 253.425386
9520000.000000 235.895142
9530000.000000 253.165548
9540000.000000 272.451636
9550000.000000 251.970583
9560000.000000 250.941330
9570000.000000 274.266845
9580000.000000 256.166339
9590000.000000 255.625687
9600000.000000 273.964122
9610000.000000 275.128629
9620000.000000 276.303440
9630000.000000 279.250077
9640000.000000 258.089356
9650000.000000 277.559750
9660000.000000 275.817229
9670000.000000 274.554068
9680000.000000 273.306661
9690000.000000 271.027690
9700000.000000 249.762228
9710000.000000 272.756881
9720000.000000 234.156594
9730000.000000 234.441040
9740000.000000 251.288483
9750000.000000 254.546257
9760000.000000 274.595048
9770000.000000 272.626575
9780000.000000 291.308187
9790000.000000 291.712707
9800000.000000 293.342291
9810000.000000 267.543948
9820000.000000 250.267132
9830000.000000 290.717283
9840000.000000 288.303168
9850000.000000 288.574506
9860000.000000 290.342605
9870000.000000 308.422443
9880000.000000 290.013918
9890000.000000 288.914793
9900000.000000 289.725092
9910000.000000 270.651208
9920000.000000 290.445452
9930000.000000 289.373680
9940000.000000 290.487042
9950000.000000 289.139227
9960000.000000 310.750194
9970000.000000 289.747819
